SNR (dB),P(fail)
0.0,1.0
0.01,1.0
0.02,1.0
0.03,1.0
0.04,0.999999999996
0.05,0.999999999957
0.06,0.999999999577
0.07,0.999999996231
0.08,0.999999969947
0.09,0.999999786161
0.1,0.999998644943
0.11,0.999992367909
0.12,0.999961862057
0.13,0.999831192016
0.14,0.999339077904
0.15,0.997713538512
0.16,0.993015361944
0.17,0.981162207381
0.18,0.955118709302
0.19,0.905398866008
0.2,0.82310891271
0.21,0.705296726262
0.22,0.559711054686
0.23,0.404754296516
0.24,0.262990659427
0.25,0.151740204931
0.26,0.0769984273119
0.27,0.03409279743
0.28,0.0130868642324
0.29,0.00433183282389
0.3,0.00123086885336
0.31,0.000299077332777
0.32,6.19353760347e-05
0.33,1.08995211458e-05
0.34,1.62578264084e-06
0.35,2.05066352678e-07
0.36,2.18268677136e-08
0.37,1.95670113587e-09
0.38,1.47480865859e-10
0.39,9.33101082446e-12
0.4,4.94836079569e-13
0.41,2.19654037937e-14
0.42,8.15098176201e-16
0.43,2.52556533477e-17
0.44,6.52684359626e-19
0.45,1.40536914819e-20
0.46,2.51878860256e-22
0.47,3.75404547068e-24
0.48,4.64861284803e-26
0.49,4.77843999593e-28
0.5,4.07399226707e-30
0.51,2.87848288486e-32
0.52,1.68405541609e-34
0.53,8.15147398787e-37
0.54,3.26162953915e-39
0.55,1.07788743727e-41
0.56,2.93940842127e-44
0.57,6.60820468194e-47
0.58,1.2235202027e-49
0.59,1.86373330433e-52
0.6,2.33298533725e-55
0.61,2.39702420947e-58
0.62,2.01884786775e-61
0.63,1.39188204285e-64
0.64,7.84369187178e-68
0.65,3.60712056539e-71
0.66,1.35136753056e-74
0.67,4.11674837527e-78
0.68,1.01774789991e-81
0.69,2.03754435828e-85
0.7,3.29584736715e-89
0.71,4.29700977083e-93
0.72,4.50383598624e-97
0.73,3.7846279312e-101
0.74,2.54228082852e-105
0.75,1.36095939762e-109
0.76,5.78728177422e-114
0.77,1.94814855878e-118
0.78,5.17273574312e-123
0.79,1.07925435625e-127
0.8,1.76241474168e-132
0.81,2.24320541435e-137
0.82,2.21575757651e-142
0.83,1.69084089252e-147
0.84,9.92120876059e-153
0.85,4.45431087311e-158
0.86,1.52244534893e-163
0.87,3.94055564233e-169
0.88,7.6816581599e-175
0.89,1.12144774371e-180
0.9,1.21896638673e-186
0.91,9.80555163789e-193
0.92,5.80116784186e-199
0.93,2.50803403442e-205
0.94,7.8714177011e-212
0.95,1.78121267651e-218
0.96,2.88587617507e-225
0.97,3.32359240946e-232
0.98,2.70076840381e-239
0.99,1.53677085389e-246
1.0,6.07541534903e-254
1.01,0.0
1.02,0.0
1.03,0.0
1.04,0.0
1.05,0.0
1.06,0.0
1.07,0.0
1.08,0.0
1.09,0.0
1.1,0.0
1.11,0.0
1.12,0.0
1.13,0.0
1.14,0.0
1.15,0.0
1.16,0.0
1.17,0.0
1.18,0.0
1.19,0.0
1.2,0.0
1.21,0.0
1.22,0.0
1.23,0.0
1.24,0.0
1.25,0.0
1.26,0.0
1.27,0.0
1.28,0.0
1.29,0.0
1.3,0.0
1.31,0.0
1.32,0.0
1.33,0.0
1.34,0.0
1.35,0.0
1.36,0.0
1.37,0.0
1.38,0.0
1.39,0.0
1.4,0.0
1.41,0.0
1.42,0.0
1.43,0.0
1.44,0.0
1.45,0.0
1.46,0.0
1.47,0.0
1.48,0.0
1.49,0.0
1.5,0.0
1.51,0.0
1.52,0.0
1.53,0.0
1.54,0.0
1.55,0.0
1.56,0.0
1.57,0.0
1.58,0.0
1.59,0.0
1.6,0.0
1.61,0.0
1.62,0.0
1.63,0.0
1.64,0.0
1.65,0.0
1.66,0.0
1.67,0.0
1.68,0.0
1.69,0.0
1.7,0.0
1.71,0.0
1.72,0.0
1.73,0.0
1.74,0.0
1.75,0.0
1.76,0.0
1.77,0.0
1.78,0.0
1.79,0.0
1.8,0.0
1.81,0.0
1.82,0.0
1.83,0.0
1.84,0.0
1.85,0.0
1.86,0.0
1.87,0.0
1.88,0.0
1.89,0.0
1.9,0.0
1.91,0.0
1.92,0.0
1.93,0.0
1.94,0.0
1.95,0.0
1.96,0.0
1.97,0.0
1.98,0.0
1.99,0.0
2.0,0.0
2.01,0.0
2.02,0.0
2.03,0.0
2.04,0.0
2.05,0.0
2.06,0.0
2.07,0.0
2.08,0.0
2.09,0.0
2.1,0.0
2.11,0.0
2.12,0.0
2.13,0.0
2.14,0.0
2.15,0.0
2.16,0.0
2.17,0.0
2.18,0.0
2.19,0.0
2.2,0.0
2.21,0.0
2.22,0.0
2.23,0.0
2.24,0.0
2.25,0.0
2.26,0.0
2.27,0.0
2.28,0.0
2.29,0.0
2.3,0.0
2.31,0.0
2.32,0.0
2.33,0.0
2.34,0.0
2.35,0.0
2.36,0.0
2.37,0.0
2.38,0.0
2.39,0.0
2.4,0.0
2.41,0.0
2.42,0.0
2.43,0.0
2.44,0.0
2.45,0.0
2.46,0.0
2.47,0.0
2.48,0.0
2.49,0.0
2.5,0.0
2.51,0.0
2.52,0.0
2.53,0.0
2.54,0.0
2.55,0.0
2.56,0.0
2.57,0.0
2.58,0.0
2.59,0.0
2.6,0.0
2.61,0.0
2.62,0.0
2.63,0.0
2.64,0.0
2.65,0.0
2.66,0.0
2.67,0.0
2.68,0.0
2.69,0.0
2.7,0.0
2.71,0.0
2.72,0.0
2.73,0.0
2.74,0.0
2.75,0.0
2.76,0.0
2.77,0.0
2.78,0.0
2.79,0.0
2.8,0.0
2.81,0.0
2.82,0.0
2.83,0.0
2.84,0.0
2.85,0.0
2.86,0.0
2.87,0.0
2.88,0.0
2.89,0.0
2.9,0.0
2.91,0.0
2.92,0.0
2.93,0.0
2.94,0.0
2.95,0.0
2.96,0.0
2.97,0.0
2.98,0.0
2.99,0.0
3.0,0.0
3.01,0.0
3.02,0.0
3.03,0.0
3.04,0.0
3.05,0.0
3.06,0.0
3.07,0.0
3.08,0.0
3.09,0.0
3.1,0.0
3.11,0.0
3.12,0.0
3.13,0.0
3.14,0.0
3.15,0.0
3.16,0.0
3.17,0.0
3.18,0.0
3.19,0.0
3.2,0.0
3.21,0.0
3.22,0.0
3.23,0.0
3.24,0.0
3.25,0.0
3.26,0.0
3.27,0.0
3.28,0.0
3.29,0.0
3.3,0.0
3.31,0.0
3.32,0.0
3.33,0.0
3.34,0.0
3.35,0.0
3.36,0.0
3.37,0.0
3.38,0.0
3.39,0.0
3.4,0.0
3.41,0.0
3.42,0.0
3.43,0.0
3.44,0.0
3.45,0.0
3.46,0.0
3.47,0.0
3.48,0.0
3.49,0.0
3.5,0.0
3.51,0.0
3.52,0.0
3.53,0.0
3.54,0.0
3.55,0.0
3.56,0.0
3.57,0.0
3.58,0.0
3.59,0.0
3.6,0.0
3.61,0.0
3.62,0.0
3.63,0.0
3.64,0.0
3.65,0.0
3.66,0.0
3.67,0.0
3.68,0.0
3.69,0.0
3.7,0.0
3.71,0.0
3.72,0.0
3.73,0.0
3.74,0.0
3.75,0.0
3.76,0.0
3.77,0.0
3.78,0.0
3.79,0.0
3.8,0.0
3.81,0.0
3.82,0.0
3.83,0.0
3.84,0.0
3.85,0.0
3.86,0.0
3.87,0.0
3.88,0.0
3.89,0.0
3.9,0.0
3.91,0.0
3.92,0.0
3.93,0.0
3.94,0.0
3.95,0.0
3.96,0.0
3.97,0.0
3.98,0.0
3.99,0.0
4.0,0.0
4.01,0.0
4.02,0.0
4.03,0.0
4.04,0.0
4.05,0.0
4.06,0.0
4.07,0.0
4.08,0.0
4.09,0.0
4.1,0.0
4.11,0.0
4.12,0.0
4.13,0.0
4.14,0.0
4.15,0.0
4.16,0.0
4.17,0.0
4.18,0.0
4.19,0.0
4.2,0.0
4.21,0.0
4.22,0.0
4.23,0.0
4.24,0.0
4.25,0.0
4.26,0.0
4.27,0.0
4.28,0.0
4.29,0.0
4.3,0.0
4.31,0.0
4.32,0.0
4.33,0.0
4.34,0.0
4.35,0.0
4.36,0.0
4.37,0.0
4.38,0.0
4.39,0.0
4.4,0.0
4.41,0.0
4.42,0.0
4.43,0.0
4.44,0.0
4.45,0.0
4.46,0.0
4.47,0.0
4.48,0.0
4.49,0.0
4.5,0.0
4.51,0.0
4.52,0.0
4.53,0.0
4.54,0.0
4.55,0.0
4.56,0.0
4.57,0.0
4.58,0.0
4.59,0.0
4.6,0.0
4.61,0.0
4.62,0.0
4.63,0.0
4.64,0.0
4.65,0.0
4.66,0.0
4.67,0.0
4.68,0.0
4.69,0.0
4.7,0.0
4.71,0.0
4.72,0.0
4.73,0.0
4.74,0.0
4.75,0.0
4.76,0.0
4.77,0.0
4.78,0.0
4.79,0.0
4.8,0.0
4.81,0.0
4.82,0.0
4.83,0.0
4.84,0.0
4.85,0.0
4.86,0.0
4.87,0.0
4.88,0.0
4.89,0.0
4.9,0.0
4.91,0.0
4.92,0.0
4.93,0.0
4.94,0.0
4.95,0.0
4.96,0.0
4.97,0.0
4.98,0.0
4.99,0.0
5.0,0.0
