SNR (dB),P(fail)
0.0,1.0
0.01,1.0
0.02,0.999999999999
0.03,0.999999999987
0.04,0.999999999864
0.05,0.999999998736
0.06,0.999999989478
0.07,0.999999921585
0.08,0.999999477916
0.09,0.999996901192
0.1,0.99998363563
0.11,0.99992325298
0.12,0.999680863086
0.13,0.998824951616
0.14,0.996173026221
0.15,0.988981368169
0.16,0.971953462488
0.17,0.936837856149
0.18,0.873915918929
0.19,0.776183614548
0.2,0.644904605537
0.21,0.492752794607
0.22,0.34094129639
0.23,0.210829365598
0.24,0.115248135471
0.25,0.0551931768378
0.26,0.0229866519382
0.27,0.00827449181691
0.28,0.00256119359216
0.29,0.000678682656303
0.3,0.000153375800469
0.31,2.94615324479e-05
0.32,4.79583833511e-06
0.33,6.59805974073e-07
0.34,7.6533065236e-08
0.35,7.46777929504e-09
0.36,6.1171368544e-10
0.37,4.19846284983e-11
0.38,2.41016517496e-12
0.39,1.15530817064e-13
0.4,4.61709829813e-15
0.41,1.53612636938e-16
0.42,4.24887422213e-18
0.43,9.75763845172e-20
0.44,1.85824420043e-21
0.45,2.93113784642e-23
0.46,3.82520405821e-25
0.47,4.12558195213e-27
0.48,3.67341257883e-29
0.49,2.69749371517e-31
0.5,1.63198771986e-33
0.51,8.12646996271e-36
0.52,3.32719414202e-38
0.53,1.11893257216e-40
0.54,3.08766112258e-43
0.55,6.9838306203e-46
0.56,1.29335758311e-48
0.57,1.95887606826e-51
0.58,2.423468732e-54
0.59,2.4460244807e-57
0.6,2.01138903142e-60
0.61,1.34563266346e-63
0.62,7.31300476534e-67
0.63,3.22332834101e-70
0.64,1.15028688235e-73
0.65,3.31744641618e-77
0.66,7.71697815521e-81
0.67,1.44487006505e-84
0.68,2.17260673328e-88
0.69,2.61742429904e-92
0.7,2.52006818287e-96
0.71,1.93389203711e-100
0.72,1.17950680915e-104
0.73,5.70047893237e-109
0.74,2.17613220095e-113
0.75,6.53983749817e-118
0.76,1.54178554877e-122
0.77,2.84083143868e-127
0.78,4.07512585107e-132
0.79,4.53251954304e-137
0.8,3.89214564063e-142
0.81,2.56894454803e-147
0.82,1.29723717766e-152
0.83,4.98749552874e-158
0.84,1.45264610679e-163
0.85,3.18847342401e-169
0.86,5.24563846743e-175
0.87,6.43233140914e-181
0.88,5.84479833176e-187
0.89,3.91194280375e-193
0.9,1.91664587289e-199
0.91,6.83023340566e-206
0.92,1.75875002744e-212
0.93,3.25005235364e-219
0.94,4.28004638348e-226
0.95,3.98789177348e-233
0.96,2.60945448816e-240
0.97,1.19001142783e-247
0.98,3.75240849058e-255
0.99,0.0
1.0,0.0
1.01,0.0
1.02,0.0
1.03,0.0
1.04,0.0
1.05,0.0
1.06,0.0
1.07,0.0
1.08,0.0
1.09,0.0
1.1,0.0
1.11,0.0
1.12,0.0
1.13,0.0
1.14,0.0
1.15,0.0
1.16,0.0
1.17,0.0
1.18,0.0
1.19,0.0
1.2,0.0
1.21,0.0
1.22,0.0
1.23,0.0
1.24,0.0
1.25,0.0
1.26,0.0
1.27,0.0
1.28,0.0
1.29,0.0
1.3,0.0
1.31,0.0
1.32,0.0
1.33,0.0
1.34,0.0
1.35,0.0
1.36,0.0
1.37,0.0
1.38,0.0
1.39,0.0
1.4,0.0
1.41,0.0
1.42,0.0
1.43,0.0
1.44,0.0
1.45,0.0
1.46,0.0
1.47,0.0
1.48,0.0
1.49,0.0
1.5,0.0
1.51,0.0
1.52,0.0
1.53,0.0
1.54,0.0
1.55,0.0
1.56,0.0
1.57,0.0
1.58,0.0
1.59,0.0
1.6,0.0
1.61,0.0
1.62,0.0
1.63,0.0
1.64,0.0
1.65,0.0
1.66,0.0
1.67,0.0
1.68,0.0
1.69,0.0
1.7,0.0
1.71,0.0
1.72,0.0
1.73,0.0
1.74,0.0
1.75,0.0
1.76,0.0
1.77,0.0
1.78,0.0
1.79,0.0
1.8,0.0
1.81,0.0
1.82,0.0
1.83,0.0
1.84,0.0
1.85,0.0
1.86,0.0
1.87,0.0
1.88,0.0
1.89,0.0
1.9,0.0
1.91,0.0
1.92,0.0
1.93,0.0
1.94,0.0
1.95,0.0
1.96,0.0
1.97,0.0
1.98,0.0
1.99,0.0
2.0,0.0
2.01,0.0
2.02,0.0
2.03,0.0
2.04,0.0
2.05,0.0
2.06,0.0
2.07,0.0
2.08,0.0
2.09,0.0
2.1,0.0
2.11,0.0
2.12,0.0
2.13,0.0
2.14,0.0
2.15,0.0
2.16,0.0
2.17,0.0
2.18,0.0
2.19,0.0
2.2,0.0
2.21,0.0
2.22,0.0
2.23,0.0
2.24,0.0
2.25,0.0
2.26,0.0
2.27,0.0
2.28,0.0
2.29,0.0
2.3,0.0
2.31,0.0
2.32,0.0
2.33,0.0
2.34,0.0
2.35,0.0
2.36,0.0
2.37,0.0
2.38,0.0
2.39,0.0
2.4,0.0
2.41,0.0
2.42,0.0
2.43,0.0
2.44,0.0
2.45,0.0
2.46,0.0
2.47,0.0
2.48,0.0
2.49,0.0
2.5,0.0
2.51,0.0
2.52,0.0
2.53,0.0
2.54,0.0
2.55,0.0
2.56,0.0
2.57,0.0
2.58,0.0
2.59,0.0
2.6,0.0
2.61,0.0
2.62,0.0
2.63,0.0
2.64,0.0
2.65,0.0
2.66,0.0
2.67,0.0
2.68,0.0
2.69,0.0
2.7,0.0
2.71,0.0
2.72,0.0
2.73,0.0
2.74,0.0
2.75,0.0
2.76,0.0
2.77,0.0
2.78,0.0
2.79,0.0
2.8,0.0
2.81,0.0
2.82,0.0
2.83,0.0
2.84,0.0
2.85,0.0
2.86,0.0
2.87,0.0
2.88,0.0
2.89,0.0
2.9,0.0
2.91,0.0
2.92,0.0
2.93,0.0
2.94,0.0
2.95,0.0
2.96,0.0
2.97,0.0
2.98,0.0
2.99,0.0
3.0,0.0
3.01,0.0
3.02,0.0
3.03,0.0
3.04,0.0
3.05,0.0
3.06,0.0
3.07,0.0
3.08,0.0
3.09,0.0
3.1,0.0
3.11,0.0
3.12,0.0
3.13,0.0
3.14,0.0
3.15,0.0
3.16,0.0
3.17,0.0
3.18,0.0
3.19,0.0
3.2,0.0
3.21,0.0
3.22,0.0
3.23,0.0
3.24,0.0
3.25,0.0
3.26,0.0
3.27,0.0
3.28,0.0
3.29,0.0
3.3,0.0
3.31,0.0
3.32,0.0
3.33,0.0
3.34,0.0
3.35,0.0
3.36,0.0
3.37,0.0
3.38,0.0
3.39,0.0
3.4,0.0
3.41,0.0
3.42,0.0
3.43,0.0
3.44,0.0
3.45,0.0
3.46,0.0
3.47,0.0
3.48,0.0
3.49,0.0
3.5,0.0
3.51,0.0
3.52,0.0
3.53,0.0
3.54,0.0
3.55,0.0
3.56,0.0
3.57,0.0
3.58,0.0
3.59,0.0
3.6,0.0
3.61,0.0
3.62,0.0
3.63,0.0
3.64,0.0
3.65,0.0
3.66,0.0
3.67,0.0
3.68,0.0
3.69,0.0
3.7,0.0
3.71,0.0
3.72,0.0
3.73,0.0
3.74,0.0
3.75,0.0
3.76,0.0
3.77,0.0
3.78,0.0
3.79,0.0
3.8,0.0
3.81,0.0
3.82,0.0
3.83,0.0
3.84,0.0
3.85,0.0
3.86,0.0
3.87,0.0
3.88,0.0
3.89,0.0
3.9,0.0
3.91,0.0
3.92,0.0
3.93,0.0
3.94,0.0
3.95,0.0
3.96,0.0
3.97,0.0
3.98,0.0
3.99,0.0
4.0,0.0
4.01,0.0
4.02,0.0
4.03,0.0
4.04,0.0
4.05,0.0
4.06,0.0
4.07,0.0
4.08,0.0
4.09,0.0
4.1,0.0
4.11,0.0
4.12,0.0
4.13,0.0
4.14,0.0
4.15,0.0
4.16,0.0
4.17,0.0
4.18,0.0
4.19,0.0
4.2,0.0
4.21,0.0
4.22,0.0
4.23,0.0
4.24,0.0
4.25,0.0
4.26,0.0
4.27,0.0
4.28,0.0
4.29,0.0
4.3,0.0
4.31,0.0
4.32,0.0
4.33,0.0
4.34,0.0
4.35,0.0
4.36,0.0
4.37,0.0
4.38,0.0
4.39,0.0
4.4,0.0
4.41,0.0
4.42,0.0
4.43,0.0
4.44,0.0
4.45,0.0
4.46,0.0
4.47,0.0
4.48,0.0
4.49,0.0
4.5,0.0
4.51,0.0
4.52,0.0
4.53,0.0
4.54,0.0
4.55,0.0
4.56,0.0
4.57,0.0
4.58,0.0
4.59,0.0
4.6,0.0
4.61,0.0
4.62,0.0
4.63,0.0
4.64,0.0
4.65,0.0
4.66,0.0
4.67,0.0
4.68,0.0
4.69,0.0
4.7,0.0
4.71,0.0
4.72,0.0
4.73,0.0
4.74,0.0
4.75,0.0
4.76,0.0
4.77,0.0
4.78,0.0
4.79,0.0
4.8,0.0
4.81,0.0
4.82,0.0
4.83,0.0
4.84,0.0
4.85,0.0
4.86,0.0
4.87,0.0
4.88,0.0
4.89,0.0
4.9,0.0
4.91,0.0
4.92,0.0
4.93,0.0
4.94,0.0
4.95,0.0
4.96,0.0
4.97,0.0
4.98,0.0
4.99,0.0
5.0,0.0
