SNR (dB),P(fail)
0.0,1.0
0.01,1.0
0.02,1.0
0.03,1.0
0.04,1.0
0.05,1.0
0.06,1.0
0.07,1.0
0.08,1.0
0.09,0.999999999999
0.1,0.999999999982
0.11,0.99999999981
0.12,0.999999998175
0.13,0.999999984391
0.14,0.99999988152
0.15,0.999999203171
0.16,0.99999525957
0.17,0.999975090181
0.18,0.999884527471
0.19,0.999528255985
0.2,0.998302714755
0.21,0.994623514439
0.22,0.985001959688
0.23,0.963123525745
0.24,0.919941276331
0.25,0.846086580273
0.26,0.736809726286
0.27,0.597148082385
0.28,0.443199536911
0.29,0.297047962591
0.3,0.177712167652
0.31,0.0940137253829
0.32,0.0436504422381
0.33,0.0176810362365
0.34,0.00621816418534
0.35,0.00189132000057
0.36,0.000495950926751
0.37,0.00011182724444
0.38,2.16345248592e-05
0.39,3.58465061298e-06
0.4,5.07901705707e-07
0.41,6.14585627478e-08
0.42,6.3442088368e-09
0.43,5.58161448112e-10
0.44,4.18201960888e-11
0.45,2.66664550281e-12
0.46,1.4462769716e-13
0.47,6.66863074556e-15
0.48,2.61303321185e-16
0.49,8.69814629532e-18
0.5,2.45897232375e-19
0.51,5.90219500445e-21
0.52,1.20255695362e-22
0.53,2.07938947037e-24
0.54,3.0507886227e-26
0.55,3.7969954483e-28
0.56,4.00791438488e-30
0.57,3.58702705564e-32
0.58,2.72120080391e-34
0.59,1.74923543483e-36
0.6,9.52413795404e-39
0.61,4.39028517429e-41
0.62,1.71244758889e-43
0.63,5.64847665158e-46
0.64,1.57444436262e-48
0.65,3.70556643211e-51
0.66,7.3572610907e-54
0.67,1.23102095178e-56
0.68,1.73381750692e-59
0.69,2.05293752606e-62
0.7,2.04065945092e-65
0.71,1.70026200753e-68
0.72,1.18543492589e-71
0.73,6.90332528152e-75
0.74,3.35115472022e-78
0.75,1.35318171166e-81
0.76,4.53466578255e-85
0.77,1.25804186385e-88
0.78,2.88183426787e-92
0.79,5.43575911149e-96
0.8,8.41765654783e-100
0.81,1.0668749611e-103
0.82,1.10308133316e-107
0.83,9.27219144932e-112
0.84,6.31358498838e-116
0.85,3.46940716213e-120
0.86,1.53255444241e-124
0.87,5.41979533725e-129
0.88,1.52795446812e-133
0.89,3.41886634764e-138
0.9,6.04381531537e-143
0.91,8.40118144341e-148
0.92,9.13780843398e-153
0.93,7.73781242452e-158
0.94,5.07458135935e-163
0.95,2.56359120135e-168
0.96,9.9209548136e-174
0.97,2.92437126938e-179
0.98,6.52727890924e-185
0.99,1.09654451953e-190
1.0,1.37789291245e-196
1.01,1.28684579196e-202
1.02,8.87383495175e-209
1.03,4.48793135727e-215
1.04,1.65321947231e-221
1.05,4.40438990749e-228
1.06,8.42469690828e-235
1.07,1.14841270441e-241
1.08,1.10712567046e-248
1.09,7.48941391345e-256
1.1,3.52670393553e-263
1.11,0.0
1.12,0.0
1.13,0.0
1.14,0.0
1.15,0.0
1.16,0.0
1.17,0.0
1.18,0.0
1.19,0.0
1.2,0.0
1.21,0.0
1.22,0.0
1.23,0.0
1.24,0.0
1.25,0.0
1.26,0.0
1.27,0.0
1.28,0.0
1.29,0.0
1.3,0.0
1.31,0.0
1.32,0.0
1.33,0.0
1.34,0.0
1.35,0.0
1.36,0.0
1.37,0.0
1.38,0.0
1.39,0.0
1.4,0.0
1.41,0.0
1.42,0.0
1.43,0.0
1.44,0.0
1.45,0.0
1.46,0.0
1.47,0.0
1.48,0.0
1.49,0.0
1.5,0.0
1.51,0.0
1.52,0.0
1.53,0.0
1.54,0.0
1.55,0.0
1.56,0.0
1.57,0.0
1.58,0.0
1.59,0.0
1.6,0.0
1.61,0.0
1.62,0.0
1.63,0.0
1.64,0.0
1.65,0.0
1.66,0.0
1.67,0.0
1.68,0.0
1.69,0.0
1.7,0.0
1.71,0.0
1.72,0.0
1.73,0.0
1.74,0.0
1.75,0.0
1.76,0.0
1.77,0.0
1.78,0.0
1.79,0.0
1.8,0.0
1.81,0.0
1.82,0.0
1.83,0.0
1.84,0.0
1.85,0.0
1.86,0.0
1.87,0.0
1.88,0.0
1.89,0.0
1.9,0.0
1.91,0.0
1.92,0.0
1.93,0.0
1.94,0.0
1.95,0.0
1.96,0.0
1.97,0.0
1.98,0.0
1.99,0.0
2.0,0.0
2.01,0.0
2.02,0.0
2.03,0.0
2.04,0.0
2.05,0.0
2.06,0.0
2.07,0.0
2.08,0.0
2.09,0.0
2.1,0.0
2.11,0.0
2.12,0.0
2.13,0.0
2.14,0.0
2.15,0.0
2.16,0.0
2.17,0.0
2.18,0.0
2.19,0.0
2.2,0.0
2.21,0.0
2.22,0.0
2.23,0.0
2.24,0.0
2.25,0.0
2.26,0.0
2.27,0.0
2.28,0.0
2.29,0.0
2.3,0.0
2.31,0.0
2.32,0.0
2.33,0.0
2.34,0.0
2.35,0.0
2.36,0.0
2.37,0.0
2.38,0.0
2.39,0.0
2.4,0.0
2.41,0.0
2.42,0.0
2.43,0.0
2.44,0.0
2.45,0.0
2.46,0.0
2.47,0.0
2.48,0.0
2.49,0.0
2.5,0.0
2.51,0.0
2.52,0.0
2.53,0.0
2.54,0.0
2.55,0.0
2.56,0.0
2.57,0.0
2.58,0.0
2.59,0.0
2.6,0.0
2.61,0.0
2.62,0.0
2.63,0.0
2.64,0.0
2.65,0.0
2.66,0.0
2.67,0.0
2.68,0.0
2.69,0.0
2.7,0.0
2.71,0.0
2.72,0.0
2.73,0.0
2.74,0.0
2.75,0.0
2.76,0.0
2.77,0.0
2.78,0.0
2.79,0.0
2.8,0.0
2.81,0.0
2.82,0.0
2.83,0.0
2.84,0.0
2.85,0.0
2.86,0.0
2.87,0.0
2.88,0.0
2.89,0.0
2.9,0.0
2.91,0.0
2.92,0.0
2.93,0.0
2.94,0.0
2.95,0.0
2.96,0.0
2.97,0.0
2.98,0.0
2.99,0.0
3.0,0.0
3.01,0.0
3.02,0.0
3.03,0.0
3.04,0.0
3.05,0.0
3.06,0.0
3.07,0.0
3.08,0.0
3.09,0.0
3.1,0.0
3.11,0.0
3.12,0.0
3.13,0.0
3.14,0.0
3.15,0.0
3.16,0.0
3.17,0.0
3.18,0.0
3.19,0.0
3.2,0.0
3.21,0.0
3.22,0.0
3.23,0.0
3.24,0.0
3.25,0.0
3.26,0.0
3.27,0.0
3.28,0.0
3.29,0.0
3.3,0.0
3.31,0.0
3.32,0.0
3.33,0.0
3.34,0.0
3.35,0.0
3.36,0.0
3.37,0.0
3.38,0.0
3.39,0.0
3.4,0.0
3.41,0.0
3.42,0.0
3.43,0.0
3.44,0.0
3.45,0.0
3.46,0.0
3.47,0.0
3.48,0.0
3.49,0.0
3.5,0.0
3.51,0.0
3.52,0.0
3.53,0.0
3.54,0.0
3.55,0.0
3.56,0.0
3.57,0.0
3.58,0.0
3.59,0.0
3.6,0.0
3.61,0.0
3.62,0.0
3.63,0.0
3.64,0.0
3.65,0.0
3.66,0.0
3.67,0.0
3.68,0.0
3.69,0.0
3.7,0.0
3.71,0.0
3.72,0.0
3.73,0.0
3.74,0.0
3.75,0.0
3.76,0.0
3.77,0.0
3.78,0.0
3.79,0.0
3.8,0.0
3.81,0.0
3.82,0.0
3.83,0.0
3.84,0.0
3.85,0.0
3.86,0.0
3.87,0.0
3.88,0.0
3.89,0.0
3.9,0.0
3.91,0.0
3.92,0.0
3.93,0.0
3.94,0.0
3.95,0.0
3.96,0.0
3.97,0.0
3.98,0.0
3.99,0.0
4.0,0.0
4.01,0.0
4.02,0.0
4.03,0.0
4.04,0.0
4.05,0.0
4.06,0.0
4.07,0.0
4.08,0.0
4.09,0.0
4.1,0.0
4.11,0.0
4.12,0.0
4.13,0.0
4.14,0.0
4.15,0.0
4.16,0.0
4.17,0.0
4.18,0.0
4.19,0.0
4.2,0.0
4.21,0.0
4.22,0.0
4.23,0.0
4.24,0.0
4.25,0.0
4.26,0.0
4.27,0.0
4.28,0.0
4.29,0.0
4.3,0.0
4.31,0.0
4.32,0.0
4.33,0.0
4.34,0.0
4.35,0.0
4.36,0.0
4.37,0.0
4.38,0.0
4.39,0.0
4.4,0.0
4.41,0.0
4.42,0.0
4.43,0.0
4.44,0.0
4.45,0.0
4.46,0.0
4.47,0.0
4.48,0.0
4.49,0.0
4.5,0.0
4.51,0.0
4.52,0.0
4.53,0.0
4.54,0.0
4.55,0.0
4.56,0.0
4.57,0.0
4.58,0.0
4.59,0.0
4.6,0.0
4.61,0.0
4.62,0.0
4.63,0.0
4.64,0.0
4.65,0.0
4.66,0.0
4.67,0.0
4.68,0.0
4.69,0.0
4.7,0.0
4.71,0.0
4.72,0.0
4.73,0.0
4.74,0.0
4.75,0.0
4.76,0.0
4.77,0.0
4.78,0.0
4.79,0.0
4.8,0.0
4.81,0.0
4.82,0.0
4.83,0.0
4.84,0.0
4.85,0.0
4.86,0.0
4.87,0.0
4.88,0.0
4.89,0.0
4.9,0.0
4.91,0.0
4.92,0.0
4.93,0.0
4.94,0.0
4.95,0.0
4.96,0.0
4.97,0.0
4.98,0.0
4.99,0.0
